step,best_objective,avg_acceptance_rate,std,temperature,runtime
0,-51770.8206,0.65,1582.2858,3164.5715,0.0162
1,-50004.6928,0.745,1223.905,449.3918,0.0599
2,-48057.1228,0.755,605.3073,408.2818,0.0966
3,-46216.7318,0.7563,677.0962,388.3659,0.1333
4,-44291.1919,0.75,486.5878,347.3303,0.1722
5,-42722.4457,0.7637,736.1929,338.7915,0.2051
6,-40995.3414,0.7275,521.0958,319.2165,0.243
7,-40067.5913,0.7062,578.451,305.5131,0.2797
8,-39322.9456,0.6575,515.7614,288.073,0.3171
9,-38428.6005,0.615,404.819,256.4368,0.3524
10,-37646.0795,0.5675,526.278,245.6332,0.3847
11,-36542.9109,0.5475,380.4977,221.0247,0.4191
12,-35812.1162,0.4962,426.7486,208.6992,0.4571
13,-34738.8666,0.475,322.9958,186.3082,0.4941
14,-33719.3455,0.4725,516.9262,182.461,0.5328
15,-33098.8983,0.4512,319.358,168.3108,0.5711
16,-32133.205,0.4162,288.6178,154.4307,0.6091
17,-31399.9467,0.4,314.022,146.5454,0.6469
18,-30681.1428,0.3825,344.7799,141.6507,0.6851
19,-30019.4135,0.355,381.4548,138.4881,0.7225
20,-29463.7413,0.3375,278.0132,131.3967,0.7613
21,-28901.4484,0.3138,250.8162,123.7671,0.7991
22,-28412.8642,0.305,275.5077,119.2719,0.8323
23,-28142.1462,0.2988,251.3527,114.2636,0.8695
24,-27600.089,0.285,196.9952,105.8738,0.9047
25,-27113.6803,0.2862,190.6404,99.1439,0.9426
26,-26671.6434,0.2725,164.9053,91.2656,0.9831
27,-26146.3239,0.2588,213.7562,88.5994,1.0209
28,-25534.8518,0.2388,303.3164,87.7788,1.0598
29,-25238.1714,0.22,224.4704,85.9449,1.0997
30,-24662.4504,0.1912,137.4712,79.3888,1.1353
31,-24202.8982,0.1912,200.1337,77.9014,1.1749
32,-23582.0214,0.1988,270.6395,77.3373,1.212
33,-23376.9429,0.185,206.3383,76.077,1.2511
34,-23144.0633,0.1875,114.8516,70.0054,1.2905
35,-22659.4848,0.1975,158.4854,68.2328,1.3282
36,-22280.9974,0.1912,212.3851,67.5315,1.3707
37,-22021.4641,0.165,141.3721,65.3525,1.4102
38,-21709.4775,0.1625,98.0477,60.4591,1.4492
39,-21580.0179,0.1425,129.6674,58.8482,1.4892
40,-21220.4502,0.1262,71.7202,51.8846,1.5337
41,-20643.5463,0.1138,129.1836,51.1567,1.574
42,-20248.8899,0.1138,154.6657,50.7876,1.6076
43,-20001.8507,0.1075,160.7517,50.4678,1.6467
44,-19832.7591,0.1062,105.5586,49.4345,1.6809
45,-19516.2227,0.1075,82.7394,47.5158,1.7189
46,-19360.1124,0.1062,117.1331,46.9168,1.759
47,-18918.7907,0.0988,61.7488,43.3194,1.7986
48,-18538.082,0.1062,158.0709,43.1617,1.836
49,-18258.2346,0.1075,116.1926,42.7469,1.8747
50,-18044.1037,0.0988,97.1775,42.0621,1.9092
51,-17672.3896,0.1038,80.8028,41.0346,1.9424
52,-17489.4326,0.1025,180.6218,40.9456,1.9786
53,-17314.9043,0.0962,58.6665,38.5418,2.0107
54,-17211.2267,0.085,59.5099,36.8067,2.0488
55,-17034.619,0.0738,41.6918,33.2545,2.0927
56,-16742.177,0.0662,62.4997,32.5849,2.1316
57,-16502.852,0.07,116.3257,32.4966,2.1727
58,-16102.53,0.0688,92.5017,32.3145,2.2065
59,-15860.4728,0.0713,113.0496,32.2182,2.2445
60,-15677.3533,0.08,88.2414,32.0123,2.2804
61,-15589.3158,0.0738,87.5664,31.7841,2.3181
62,-15573.3436,0.0613,62.5706,31.2258,2.3559
63,-15402.135,0.0525,8.233,4.2965,2.3887
64,-15241.0957,0.0488,51.4825,4.2962,2.4285
65,-14983.6913,0.045,65.3653,4.2961,2.4644
66,-14941.0634,0.0425,82.9837,4.296,2.5011
67,-14829.5795,0.0438,14.5374,4.287,2.54
68,-14588.0979,0.0425,38.1244,4.2865,2.5784
69,-14530.9811,0.0388,83.8932,4.2865,2.6184
70,-14247.613,0.0412,19.3384,4.283,2.6514
71,-14135.5789,0.0425,76.3093,4.283,2.6846
72,-14023.8359,0.0362,34.1888,4.2823,2.7275
73,-13957.6512,0.0325,51.9846,4.2821,2.7653
74,-13920.8163,0.0338,27.6787,4.2811,2.8048
75,-13772.7429,0.0275,11.7514,4.2676,2.8379
76,-13724.1262,0.0238,55.3485,4.2675,2.8759
77,-13663.2728,0.0262,18.0826,4.2649,2.9168
78,-13524.5732,0.0275,18.4565,4.2623,2.9549
79,-13443.8571,0.0238,59.8288,4.2622,2.9951
80,-13285.6401,0.0238,31.4686,4.2617,3.0282
81,-13018.7112,0.0275,41.6953,4.2615,3.0652
82,-12879.7607,0.0288,107.75,4.2615,3.1085
83,-12799.4241,0.0312,51.4068,4.2613,3.1481
84,-12764.188,0.0312,20.9456,4.2592,3.1873
85,-12651.5981,0.0288,9.0046,4.232,3.2281
86,-12546.9807,0.0238,56.4134,4.2319,3.2725
87,-12493.6319,0.025,39.8441,4.2317,3.3139
88,-12429.3252,0.02,21.1784,4.2301,3.3494
89,-12401.0995,0.0213,29.0411,4.2296,3.3861
90,-12299.7845,0.025,22.0964,4.2283,3.418
91,-12248.0984,0.0275,33.7112,4.2279,3.4511
92,-12227.3035,0.025,24.2226,4.2267,3.4892
93,-12061.3157,0.0275,10.0418,4.2114,3.527
94,-12026.8178,0.0275,38.5877,4.2111,3.5658
95,-11876.7834,0.0275,14.3735,4.2055,3.6006
96,-11789.3197,0.0312,42.3494,4.2052,3.6336
97,-11765.5471,0.03,29.1278,4.2045,3.6702
98,-11754.4168,0.0288,3.5227,3.826,3.7037
99,-11730.2272,0.0262,4.9161,3.7279,3.7377
100,-11611.6041,0.0262,0.0,3.7279,3.7741
101,-11519.0843,0.0213,41.0169,3.7277,3.8071
102,-11498.5079,0.0213,26.0084,3.7273,3.8411
103,-11378.128,0.02,10.4407,3.7202,3.8818
104,-11273.1888,0.0212,55.3889,3.7202,3.9199
105,-11267.3608,0.0162,44.2706,3.7201,3.9585
106,-11238.8275,0.0138,0.2896,0.0541,3.9923
107,-11180.4408,0.0125,1.6386,0.0541,4.0291
108,-11112.614,0.0125,18.4533,0.0541,4.0738
109,-11112.614,0.01,25.2527,0.0541,4.1125
110,-11040.7332,0.01,25.2527,0.0541,4.1549
111,-10907.5077,0.0113,11.2015,0.0541,4.1914
112,-10788.9561,0.01,47.8582,0.0541,4.2504
113,-10788.9561,0.0075,0.0,0.0541,4.3094
114,-10772.191,0.0112,0.0,0.0541,4.3511
115,-10748.6409,0.01,3.8797,0.0541,4.3741
116,-10714.9267,0.0088,0.0,0.0541,4.4083
117,-10617.4877,0.01,8.2688,0.0541,4.4422
118,-10587.7952,0.0113,45.8055,0.0541,4.481
119,-10540.5039,0.015,0.0,0.0541,4.5196
120,-10494.7235,0.0175,14.5998,0.0541,4.554
121,-10457.5367,0.0175,12.0423,0.0541,4.5895
122,-10423.7368,0.0188,3.8591,0.0541,4.6228
123,-10423.7368,0.0175,13.9042,0.0541,4.6598
124,-10423.7368,0.01,13.9042,0.0541,4.6984
125,-10393.5991,0.0088,13.9042,0.0541,4.7333
126,-10206.8864,0.01,7.9641,0.0541,4.7733
127,-10171.6544,0.01,69.392,0.0541,4.8088
128,-10155.8382,0.0125,12.4003,0.0541,4.8447
129,-10155.8382,0.0125,6.6584,0.0541,4.8815
130,-10118.4129,0.0125,6.6584,0.0541,4.9143
131,-10095.1576,0.01,18.691,0.0541,4.9512
132,-10051.9057,0.01,0.0,0.0541,4.9851
133,-9974.91,0.01,16.1499,0.0541,5.018
134,-9915.7248,0.0138,22.9892,0.0541,5.0582
135,-9915.7248,0.0112,21.4364,0.0541,5.0905
136,-9915.7248,0.01,21.4364,0.0541,5.1219
137,-9840.3268,0.0088,21.4364,0.0541,5.1592
138,-9836.3865,0.0075,23.1717,0.0541,5.1981
139,-9820.1256,0.0062,0.0,0.0541,5.2386
140,-9814.0113,0.0075,7.4474,0.0541,5.2757
141,-9791.1184,0.0088,0.0,0.0541,5.3087
142,-9791.1184,0.0062,0.0,0.0541,5.3493
143,-9778.3325,0.0062,0.0,0.0541,5.3832
144,-9650.5427,0.0062,0.0,0.0541,5.416
145,-9542.8266,0.0075,26.4118,0.0541,5.4534
146,-9542.8266,0.0062,42.0093,0.0541,5.4853
147,-9532.7734,0.0075,42.0093,0.0541,5.5183
148,-9519.3356,0.0075,0.0,0.0541,5.5497
149,-9519.3356,0.005,0.0,0.0541,5.5824
150,-9516.8361,0.0038,0.0,0.0541,5.6212
151,-9486.4125,0.0062,0.0,0.0541,5.6547
152,-9471.9836,0.0088,13.0553,0.0541,5.689
153,-9417.024,0.0112,0.6635,0.0541,5.7263
154,-9383.8694,0.0125,18.5002,0.0541,5.7591
155,-9342.2593,0.0125,0.0,0.0541,5.7983
156,-9259.9995,0.0112,0.0,0.0541,5.8313
157,-9259.9995,0.0075,0.0,0.0541,5.8704
158,-9259.9995,0.0038,0.0,0.0541,5.9134
159,-9259.9995,0.0025,0.0,0.0541,5.9525
160,-9259.9995,0.0012,0.0,0.0541,5.9925
161,-9252.7946,0.0012,0.0,0.0541,6.0262
162,-9244.4869,0.0025,0.0,0.0541,6.066
163,-9220.7893,0.0038,0.0,0.0541,6.1049
164,-9214.5385,0.005,0.0,0.0541,6.1469
165,-9187.6015,0.0062,0.0,0.0541,6.1842
166,-9114.7603,0.0075,0.0,0.0541,6.2263
167,-9093.2877,0.0075,35.8812,0.0541,6.2582
168,-9076.338,0.0075,0.0,0.0541,6.2936
169,-9069.0213,0.0075,0.0,0.0541,6.3272
170,-9044.9462,0.0075,0.0,0.0541,6.3608
171,-8981.8896,0.0075,0.0,0.0541,6.4
172,-8916.683,0.0075,4.2437,0.0541,6.4333
173,-8886.6959,0.0088,0.0,0.0541,6.4662
174,-8831.3295,0.01,13.0303,0.0541,6.5041
175,-8831.3295,0.0088,26.0196,0.0541,6.5398
176,-8825.2091,0.0075,26.0196,0.0541,6.5758
177,-8825.2091,0.0062,0.0,0.0541,6.6123
178,-8825.2091,0.0038,0.0,0.0541,6.6499
179,-8825.2091,0.0012,0.0,0.0541,6.69
180,-8825.2091,0.0012,0.0,0.0541,6.7286
181,-8803.8148,0.0012,0.0,0.0541,6.7677
182,-8765.1807,0.0025,0.0,0.0541,6.8097
183,-8765.1807,0.0025,0.0,0.0541,6.8488
184,-8765.1807,0.0025,0.0,0.0541,6.8904
185,-8765.1807,0.0025,0.0,0.0541,6.9299
186,-8737.8493,0.0025,0.0,0.0541,6.9695
187,-8709.8589,0.0038,0.0,0.0541,7.008
188,-8696.945,0.005,4.4789,0.0541,7.042
189,-8684.5057,0.0062,0.0,0.0541,7.0807
190,-8684.5057,0.0062,0.0,0.0541,7.115
191,-8684.5057,0.005,0.0,0.0541,7.1514
192,-8679.9773,0.0038,0.0,0.0541,7.1909
193,-8670.6835,0.0038,0.0,0.0541,7.2275
194,-8665.7162,0.005,0.0,0.0541,7.2681
195,-8566.2152,0.0075,1.0675,0.0541,7.3022
196,-8566.2152,0.0075,42.6601,0.0541,7.3385
197,-8551.0971,0.0075,42.6601,0.0541,7.3773
198,-8508.3053,0.0088,0.0,0.0541,7.4108
199,-8508.3053,0.0062,14.3467,0.0541,7.4449
200,-8508.3053,0.0038,14.3467,0.0541,7.487
