step,best_objective,avg_acceptance_rate,std,temperature,runtime
0,-48872.5775,0.6969,1912.3423,3824.6845,0.0194
1,-46654.9956,0.7894,2006.3242,1237.8517,0.1137
2,-44769.1775,0.8084,851.0277,779.3897,0.2072
3,-43398.9696,0.8062,776.2936,666.621,0.2972
4,-41785.4023,0.7953,784.6775,603.7255,0.3899
5,-40134.9458,0.8094,789.0221,557.8257,0.4798
6,-38313.8235,0.7709,767.2269,524.3742,0.5713
7,-36299.0738,0.7378,700.8416,481.1968,0.6637
8,-35172.9749,0.7028,885.8496,462.3236,0.7564
9,-34466.9521,0.6731,693.1188,425.0942,0.8493
10,-33936.9801,0.6378,861.7963,409.0504,0.9412
11,-33168.9533,0.6144,769.4179,388.0188,1.0346
12,-32370.6553,0.5916,824.1114,373.1904,1.1271
13,-31639.4633,0.5706,645.8646,346.5808,1.2186
14,-31173.1874,0.5525,610.7616,322.3199,1.3108
15,-30415.8177,0.5372,651.6218,306.6424,1.403
16,-29215.7653,0.5234,648.1538,293.2826,1.4963
17,-28625.3698,0.4994,646.8674,281.8253,1.5895
18,-27592.3144,0.4766,507.8073,261.9183,1.6828
19,-27014.6662,0.4509,620.2762,253.3336,1.7774
20,-25897.9974,0.4222,444.0932,233.6738,1.871
21,-25579.7991,0.3903,574.4993,226.762,1.9641
22,-25164.1705,0.3747,546.5792,219.7332,2.0564
23,-24631.5135,0.3612,376.1619,201.8793,2.15
24,-24166.7631,0.3484,542.9219,197.4228,2.2441
25,-23510.0351,0.3334,445.2243,190.2272,2.3356
26,-23052.0643,0.3278,424.4478,183.1902,2.4277
27,-22417.0518,0.3078,460.7658,178.4381,2.5213
28,-21858.2906,0.2938,313.3082,165.8169,2.6156
29,-21538.2206,0.2744,419.7257,161.8002,2.711
30,-21049.9819,0.2591,290.1366,151.5959,2.8037
31,-20611.669,0.2366,416.8624,148.9075,2.897
32,-19617.7612,0.2216,334.4419,144.3871,2.9904
33,-19383.841,0.2059,337.3916,140.6437,3.0821
34,-18935.8188,0.1984,325.0801,137.0614,3.1749
35,-18650.9178,0.1909,332.7222,134.1152,3.2681
36,-18361.8484,0.1894,281.6555,129.8326,3.3607
37,-18101.3254,0.1834,265.6659,125.3884,3.4528
38,-17805.8017,0.1725,306.9721,122.9047,3.5457
39,-17478.3664,0.165,153.731,107.3793,3.639
40,-17299.8021,0.1581,218.3857,104.0003,3.7326
41,-17070.2096,0.1419,120.6224,88.9356,3.8258
42,-16740.4859,0.1281,167.5181,85.8266,3.9205
43,-16303.189,0.1219,138.662,81.5275,4.0135
44,-16061.6688,0.1113,134.0647,77.7984,4.107
45,-15729.8328,0.1019,129.2734,74.5944,4.2004
46,-15525.9001,0.1013,148.5078,72.9085,4.2938
47,-15177.3878,0.1022,157.8509,71.6277,4.3878
48,-14919.5975,0.0994,138.36,69.8545,4.4818
49,-14653.633,0.0994,172.3162,69.0335,4.5745
50,-14335.943,0.0934,141.6782,67.6367,4.6685
51,-14065.9094,0.0859,170.6072,66.9319,4.7623
52,-13956.6425,0.0819,138.6615,65.7721,4.8574
53,-13798.1335,0.0747,125.2196,64.3722,4.952
54,-13586.0006,0.0666,82.0361,60.3482,5.0536
55,-13488.7682,0.0675,103.8309,58.9125,5.1457
56,-13286.7966,0.0628,112.5273,57.8684,5.2414
57,-13137.8828,0.0609,73.3315,54.7066,5.3365
58,-12979.0628,0.0603,104.3887,53.8209,5.4321
59,-12866.9922,0.0603,70.6327,51.2531,5.5213
60,-12784.8436,0.0547,65.4123,48.6054,5.6159
61,-12692.4758,0.055,61.5151,46.2485,5.7106
62,-12530.3275,0.05,65.693,44.6309,5.8048
63,-12456.0519,0.0481,76.0608,43.791,5.899
64,-12377.5628,0.0441,66.8443,42.6919,5.9918
65,-12305.6887,0.0447,85.7503,42.2529,6.0855
66,-12084.5453,0.0419,39.9467,38.3773,6.1792
67,-11878.251,0.0441,104.1964,38.2241,6.2733
68,-11760.1323,0.0406,90.4214,37.9825,6.3675
69,-11591.4506,0.0406,47.4565,36.5235,6.4611
70,-11400.502,0.0366,60.856,35.9185,6.5541
71,-11299.0683,0.0331,61.3658,35.4183,6.6456
72,-11112.904,0.0303,56.044,34.8549,6.738
73,-11016.8217,0.0316,72.6907,34.6306,6.8296
74,-10765.5729,0.0297,48.7139,33.8865,6.9245
75,-10606.1679,0.0291,97.199,33.804,7.0187
76,-10508.0367,0.0306,76.1658,33.6381,7.1127
77,-10378.4325,0.0278,48.9191,33.0012,7.2082
78,-10272.5266,0.0256,49.8855,32.4925,7.3018
79,-10179.2282,0.0234,62.5846,32.2671,7.3937
80,-10126.9002,0.0241,45.152,31.737,7.487
81,-10031.2218,0.0234,54.0608,31.4383,7.5826
82,-9974.0317,0.0216,50.3276,31.0914,7.6765
83,-9914.5145,0.0206,47.1308,30.7193,7.7708
84,-9798.3757,0.0222,37.6263,30.0585,7.8649
85,-9752.5859,0.0222,58.32,29.881,7.9604
86,-9702.3428,0.02,48.5039,29.581,8.0553
87,-9509.9144,0.0213,22.4144,27.1361,8.1517
88,-9448.5479,0.0228,54.1918,26.9952,8.247
89,-9381.9378,0.0231,32.7728,26.339,8.3426
90,-9333.3177,0.02,37.9217,25.9462,8.4359
91,-9288.7734,0.0206,28.5741,25.2065,8.529
92,-9200.8612,0.0203,23.0444,23.9409,8.6235
93,-9158.007,0.0188,25.879,23.2096,8.7169
94,-9093.7055,0.0172,20.3001,21.9998,8.8102
95,-8951.5881,0.0178,31.3824,21.7468,8.9059
96,-8923.3519,0.0169,54.3049,21.698,9.0011
97,-8875.63,0.0162,38.2039,21.5669,9.0946
98,-8811.8473,0.0144,31.4436,21.3467,9.187
99,-8747.1026,0.0131,52.1877,21.3054,9.2807
100,-8684.58,0.0128,48.3772,21.2583,9.3763
101,-8562.4504,0.0119,35.9525,21.1478,9.4689
102,-8516.5564,0.01,52.2443,21.1149,9.5613
103,-8427.9336,0.0116,40.0977,21.054,9.6553
104,-8409.5335,0.0116,46.2562,21.0087,9.7499
105,-8343.8945,0.0103,15.8594,19.9488,9.8448
106,-8300.2806,0.0109,36.257,19.8812,9.9386
107,-8279.6433,0.0116,40.4996,19.8305,10.0342
108,-8226.6552,0.01,23.7752,19.5709,10.1278
109,-8211.8511,0.0094,24.1424,19.3666,10.2203
110,-8171.2124,0.0097,22.8498,19.1501,10.3124
111,-8132.7669,0.0091,26.6198,19.0142,10.4052
112,-8051.538,0.0078,24.6631,18.859,10.4981
113,-8051.538,0.0072,29.2613,18.7811,10.5914
114,-8019.2844,0.0078,18.5455,18.5068,10.6853
115,-7967.362,0.0062,20.1269,18.2864,10.7803
116,-7961.2746,0.0062,13.0559,17.6828,10.8736
117,-7956.9936,0.0056,10.9042,16.7933,10.9675
118,-7892.7165,0.0056,1.1428,0.4602,11.06
119,-7878.3336,0.0056,24.4058,0.4602,11.1527
120,-7876.2828,0.0053,6.4322,0.4602,11.2462
121,-7852.5229,0.0047,0.0,0.4602,11.3382
122,-7851.419,0.0044,9.3411,0.4602,11.4323
123,-7822.1447,0.0044,0.0,0.4602,11.5259
124,-7808.0857,0.0034,13.9769,0.4602,11.6196
125,-7794.9793,0.0034,6.1313,0.4602,11.7135
126,-7779.7981,0.0028,0.0,0.4602,11.8071
127,-7704.4002,0.0038,2.7732,0.4602,11.9009
128,-7683.0259,0.0031,25.193,0.4602,11.9945
129,-7651.9739,0.0034,0.0,0.4602,12.0864
130,-7651.9739,0.0031,8.3836,0.4602,12.1873
131,-7651.9739,0.0025,8.3836,0.4602,12.2796
132,-7578.9572,0.0016,8.3836,0.4602,12.3724
133,-7578.9572,0.0012,0.0,0.4602,12.4648
134,-7473.6574,0.0019,0.0,0.4602,12.5578
135,-7445.649,0.0028,27.3269,0.4602,12.6514
136,-7445.649,0.0028,8.638,0.4602,12.7458
137,-7426.2638,0.0028,8.638,0.4602,12.8398
138,-7415.9598,0.0034,0.0,0.4602,12.9326
139,-7414.1634,0.0022,1.4056,0.4601,13.0267
140,-7379.4264,0.0022,0.0,0.4601,13.1217
141,-7363.0697,0.0025,16.6658,0.4601,13.2163
142,-7363.0697,0.0022,0.0,0.4601,13.3117
143,-7363.0697,0.0016,0.0,0.4601,13.4045
144,-7363.0697,0.0012,0.0,0.4601,13.4983
145,-7349.802,0.0006,0.0,0.4601,13.5925
146,-7349.802,0.0003,0.0,0.4601,13.6862
147,-7349.802,0.0003,0.0,0.4601,13.7804
148,-7349.802,0.0003,0.0,0.4601,13.8758
149,-7292.8029,0.0006,0.0,0.4601,13.9696
150,-7292.8029,0.0003,0.0,0.4601,14.0648
151,-7292.8029,0.0003,0.0,0.4601,14.1587
152,-7292.8029,0.0003,0.0,0.4601,14.2514
153,-7291.4247,0.0009,0.0,0.4601,14.3448
154,-7291.4247,0.0006,0.4973,0.4594,14.4402
155,-7291.4247,0.0009,0.4973,0.4594,14.5347
156,-7291.4247,0.0009,0.0,0.4594,14.6281
157,-7290.8234,0.0012,0.0,0.4594,14.7202
158,-7290.623,0.0009,0.0,0.4594,14.8154
159,-7283.3307,0.0012,0.0,0.4594,14.9096
160,-7282.9471,0.0012,0.0,0.4594,15.0036
161,-7282.9471,0.0012,0.0,0.4594,15.0983
162,-7282.9471,0.0009,0.0,0.4594,15.1916
163,-7282.9471,0.0006,0.0,0.4594,15.2833
164,-7282.9471,0.0003,0.0,0.4594,15.3766
165,-7282.9471,0.0003,0.0,0.4594,15.4693
166,-7282.9471,0.0003,0.0,0.4594,15.5623
167,-7273.3123,0.0006,0.0,0.4594,15.6576
168,-7273.3123,0.0006,0.0,0.4594,15.7508
169,-7273.3123,0.0006,0.0,0.4594,15.8442
170,-7218.4641,0.0009,0.0,0.4594,15.9367
171,-7218.4641,0.0009,22.2096,0.4594,16.0289
172,-7218.4641,0.0006,22.2096,0.4594,16.1213
173,-7218.4641,0.0006,22.2096,0.4594,16.2149
174,-7218.4641,0.0006,22.2096,0.4594,16.308
175,-7218.4641,0.0,22.2096,0.4594,16.401
176,-7218.4641,0.0,22.2096,0.4594,16.4956
177,-7218.4641,0.0,22.2096,0.4594,16.5887
178,-7218.4641,0.0,22.2096,0.4594,16.6813
179,-7218.4641,0.0,22.2096,0.4594,16.7741
180,-7199.0943,0.0003,22.2096,0.4594,16.8682
181,-7199.0943,0.0003,0.0,0.4594,16.9637
182,-7199.0943,0.0003,0.0,0.4594,17.0583
183,-7199.0943,0.0003,0.0,0.4594,17.158
184,-7189.3518,0.0006,0.0,0.4594,17.2516
185,-7173.2273,0.0006,0.0,0.4594,17.3436
186,-7173.2273,0.0006,0.0,0.4594,17.4364
187,-7173.2273,0.0006,0.0,0.4594,17.5295
188,-7173.2273,0.0006,0.0,0.4594,17.621
189,-7173.2273,0.0003,0.0,0.4594,17.7126
190,-7173.2273,0.0,0.0,0.4594,17.8057
191,-7173.2273,0.0,0.0,0.4594,17.8978
192,-7173.2273,0.0,0.0,0.4594,17.9904
193,-7173.2273,0.0,0.0,0.4594,18.0821
194,-7173.2273,0.0,0.0,0.4594,18.1745
195,-7173.2273,0.0,0.0,0.4594,18.266
196,-7173.2273,0.0,0.0,0.4594,18.3591
197,-7173.2273,0.0,0.0,0.4594,18.4509
198,-7173.2273,0.0,0.0,0.4594,18.5446
199,-7173.2273,0.0,0.0,0.4594,18.6376
200,-7173.2273,0.0,0.0,0.4594,18.7319
