step,best_objective,avg_acceptance_rate,std,temperature,runtime
0,-49889.48,0.7344,1465.0837,2930.1674,0.0111
1,-48260.7282,0.8281,1616.302,1152.7643,0.0585
2,-45840.4273,0.8175,626.9493,611.2619,0.1136
3,-44014.7966,0.81,841.6117,576.8349,0.1686
4,-41921.3711,0.79,615.2939,507.7273,0.2234
5,-39683.5336,0.7837,655.9981,466.5492,0.2749
6,-38963.6827,0.7381,870.5547,452.7364,0.3261
7,-37966.7682,0.7137,735.3993,427.3762,0.3826
8,-37425.627,0.69,727.2551,404.1797,0.4381
9,-36569.0503,0.6725,582.4452,366.3389,0.4946
10,-36245.108,0.6475,650.646,346.1103,0.5504
11,-35260.3168,0.6206,538.6855,316.5659,0.6028
12,-34661.8255,0.5831,525.5008,292.5466,0.6542
13,-33468.7437,0.5469,404.9152,253.8811,0.7057
14,-32752.287,0.5181,557.5259,244.0765,0.7586
15,-31490.411,0.495,441.0709,227.2019,0.8132
16,-30523.6666,0.4831,463.355,215.8554,0.8685
17,-29799.6882,0.4738,442.6112,205.1755,0.9258
18,-29426.4747,0.4525,385.0334,192.0796,0.9817
19,-28882.0932,0.4194,357.6394,179.4805,1.0387
20,-28255.1712,0.3938,315.2566,165.643,1.0942
21,-27658.5313,0.3569,342.7548,157.658,1.151
22,-26925.2932,0.345,387.9632,153.1624,1.2082
23,-26440.827,0.3356,302.2457,145.005,1.2646
24,-25758.2978,0.3275,280.8668,136.9427,1.3212
25,-25296.3852,0.3113,328.0178,132.8479,1.3774
26,-24923.9493,0.2969,186.5274,115.5568,1.436
27,-24425.2177,0.2719,214.3825,108.6678,1.4924
28,-24002.1044,0.2556,323.8118,107.1048,1.5498
29,-23276.236,0.2419,174.7298,98.6443,1.612
30,-22620.3455,0.2262,253.0347,96.5854,1.6725
31,-21763.4357,0.2219,192.3895,92.552,1.734
32,-21466.8354,0.2075,282.1054,91.4542,1.7942
33,-21087.3242,0.1888,107.0154,76.0524,1.8558
34,-20496.6401,0.1794,164.3773,73.8372,1.9174
35,-20263.9922,0.1706,217.6966,73.0067,1.9789
36,-20005.8874,0.1512,200.4166,72.0298,2.0411
37,-19632.9558,0.1456,133.0123,69.2262,2.102
38,-19253.78,0.1431,197.3818,68.4954,2.1631
39,-18977.68,0.1344,154.8137,67.0789,2.225
40,-18778.8307,0.1288,145.6786,65.5968,2.2857
41,-18650.7256,0.1244,177.7849,64.8693,2.348
42,-18291.5039,0.1162,120.1393,62.7279,2.4092
43,-18156.0957,0.1056,128.6542,61.2742,2.4709
44,-18022.5425,0.1044,65.7913,53.1822,2.5348
45,-17697.605,0.1062,108.2151,52.031,2.5965
46,-17495.7952,0.1038,122.9885,51.2957,2.6583
47,-17276.8108,0.0919,85.2578,49.3047,2.721
48,-16934.2634,0.0925,75.0185,47.0795,2.7823
49,-16688.8399,0.0838,148.5635,46.8299,2.8433
50,-16473.4159,0.0762,88.5625,45.7928,2.9061
51,-16149.2931,0.0756,111.4972,45.3509,2.9691
52,-15951.4227,0.0756,116.7478,44.9829,3.0324
53,-15849.5674,0.0725,85.6921,44.0925,3.0958
54,-15718.8092,0.0706,64.0024,42.2378,3.1592
55,-15544.472,0.0675,102.7367,41.8565,3.2201
56,-15362.2471,0.0625,76.4227,41.0093,3.2814
57,-15233.115,0.0631,82.2017,40.4218,3.3448
58,-15035.8174,0.0619,92.504,40.0272,3.4036
59,-14924.4096,0.0575,68.3018,39.1142,3.4604
60,-14730.3875,0.0569,73.1436,38.477,3.5258
61,-14509.1285,0.0544,95.1934,38.2066,3.5825
62,-14426.8594,0.0512,67.3859,37.5041,3.6397
63,-14239.8046,0.0481,74.7632,37.0496,3.6958
64,-14127.373,0.0519,115.9345,36.9393,3.7511
65,-13715.3329,0.0488,72.1831,36.459,3.8028
66,-13650.4353,0.0512,136.4842,36.3947,3.86
67,-13555.5764,0.0494,50.5019,35.1174,3.9167
68,-13476.4321,0.0494,34.6856,32.0017,3.9722
69,-13231.9207,0.0475,44.9737,30.9554,4.0289
70,-13201.3229,0.0462,67.1517,30.6836,4.0862
71,-13027.5502,0.0394,38.9037,29.4113,4.1426
72,-12982.9885,0.0356,59.9428,29.1509,4.1992
73,-12836.7537,0.0319,22.9174,25.5403,4.2508
74,-12631.5515,0.0325,55.9517,25.3913,4.3026
75,-12551.3834,0.0325,59.2687,25.2664,4.3546
76,-12533.6978,0.0325,33.8103,24.6204,4.4062
77,-12397.5381,0.0344,26.4824,23.4364,4.4576
78,-12325.6025,0.0306,51.669,23.2922,4.5092
79,-12257.602,0.025,35.8202,22.9181,4.5612
80,-12167.2107,0.0219,28.3959,22.3455,4.6161
81,-11992.1737,0.0231,71.4323,22.3163,4.6682
82,-11956.4345,0.0212,60.3263,22.2654,4.7208
83,-11853.2194,0.0225,27.4412,21.7814,4.7734
84,-11816.4449,0.0225,43.842,21.6646,4.8256
85,-11795.1281,0.0219,17.3571,19.9577,4.8771
86,-11584.6035,0.0262,32.5187,19.7622,4.9291
87,-11515.0763,0.0269,70.2265,19.7397,4.9811
88,-11403.4721,0.0306,30.9543,19.4756,5.0327
89,-11223.0923,0.0325,34.8166,19.2753,5.0842
90,-11133.3324,0.0369,63.9128,19.2422,5.1361
91,-10901.4124,0.0294,35.8801,19.0337,5.1887
92,-10855.8025,0.0288,78.3664,19.0182,5.247
93,-10798.507,0.0225,19.9206,18.137,5.3025
94,-10735.8623,0.0225,29.8728,17.9602,5.3592
95,-10682.2754,0.0194,31.5863,17.8161,5.4144
96,-10614.7037,0.0213,20.9124,17.4072,5.4662
97,-10519.4175,0.0238,36.2285,17.3272,5.5178
98,-10497.1996,0.025,42.8598,17.2743,5.5747
99,-10412.127,0.0225,17.3582,16.4825,5.6315
100,-10384.7222,0.0213,29.0659,16.3514,5.6887
101,-10289.436,0.02,21.4532,16.0557,5.7438
102,-10253.6868,0.0188,43.7331,16.0246,5.7996
103,-10026.2232,0.0175,19.0881,15.6832,5.8518
104,-9919.9626,0.02,92.4318,15.6806,5.9041
105,-9919.2777,0.02,41.0922,15.6465,5.9561
106,-9832.3199,0.0181,9.8253,13.5082,6.0079
107,-9749.9695,0.015,36.0048,13.4829,6.0595
108,-9722.5791,0.0156,34.0449,13.4582,6.1116
109,-9679.7764,0.0125,20.5818,13.3434,6.1629
110,-9660.5215,0.0106,15.2675,13.1271,6.2149
111,-9640.4368,0.0106,8.6815,12.2377,6.2667
112,-9630.5164,0.0113,8.5234,11.5208,6.3182
113,-9629.2614,0.01,7.1394,10.5359,6.3703
114,-9628.9617,0.0088,12.6732,10.4174,6.422
115,-9628.071,0.0081,9.0616,10.1499,6.4743
116,-9572.3928,0.0081,0.0,10.1499,6.5265
117,-9518.9626,0.01,24.0921,10.1376,6.579
118,-9518.9626,0.0081,25.8546,10.1255,6.6364
119,-9501.5905,0.0081,25.8546,10.1255,6.692
120,-9472.4214,0.0106,5.0959,8.989,6.7438
121,-9446.5106,0.0131,13.3115,8.9311,6.7977
122,-9420.0963,0.0112,8.9433,8.7065,6.8488
123,-9372.9261,0.0125,12.4257,8.6404,6.9002
124,-9343.6351,0.0131,32.3815,8.6364,6.9513
125,-9343.6351,0.0106,14.2607,8.5869,7.0028
126,-9322.4845,0.0075,0.0,8.5869,7.054
127,-9212.288,0.0069,5.0601,8.0046,7.1048
128,-9164.4944,0.0062,45.6481,8.004,7.1559
129,-9144.4765,0.0056,0.0,8.004,7.2077
130,-9132.093,0.0062,4.7823,7.6051,7.2592
131,-9017.5445,0.01,7.5965,7.5115,7.311
132,-8979.3749,0.0125,42.4717,7.5107,7.3618
133,-8937.9492,0.0144,18.9062,7.4991,7.4133
134,-8893.3363,0.0175,15.7538,7.4762,7.4654
135,-8893.3363,0.0162,19.5809,7.462,7.5169
136,-8839.7665,0.0125,19.5809,7.462,7.5685
137,-8813.5527,0.0088,4.1275,6.5121,7.6199
138,-8782.3338,0.0088,0.0,6.5121,7.6719
139,-8763.7128,0.0062,11.8799,6.4935,7.7229
140,-8703.1872,0.0088,12.6957,6.4827,7.7739
141,-8687.8867,0.0088,17.7359,6.4772,7.8249
142,-8687.8867,0.0081,5.8137,6.3255,7.8762
143,-8657.2955,0.0069,5.8137,6.3255,7.9276
144,-8627.3172,0.0069,13.7804,6.3172,7.9797
145,-8627.3172,0.0044,13.8211,6.3089,8.0312
146,-8620.5683,0.0038,13.8211,6.3089,8.082
147,-8596.5911,0.0062,0.0,6.3089,8.1338
148,-8596.5911,0.005,9.2733,6.2844,8.1853
149,-8549.1274,0.005,9.2733,6.2844,8.2363
150,-8544.4237,0.0075,15.5651,6.2802,8.2883
151,-8528.1406,0.0081,9.2756,6.2514,8.3447
152,-8515.7687,0.0062,6.6078,6.1672,8.4007
153,-8466.9779,0.0075,0.0,6.1672,8.4574
154,-8445.8105,0.0062,3.8309,5.8065,8.5205
155,-8368.7344,0.0056,0.0,5.8065,8.5724
156,-8271.7212,0.0069,38.7771,5.8063,8.6237
157,-8240.3007,0.0069,41.2801,5.8061,8.6755
158,-8240.3007,0.0062,0.0,5.8061,8.7272
159,-8225.9953,0.0069,0.0,5.8061,8.779
160,-8225.9953,0.005,7.4014,5.7681,8.8307
161,-8198.7679,0.0056,7.4014,5.7681,8.883
162,-8170.1916,0.0062,12.2137,5.7613,8.9357
163,-8143.3969,0.0069,12.7544,5.7547,8.9874
164,-8143.3969,0.0062,8.8271,5.733,9.0393
165,-8104.7956,0.0075,0.0,5.733,9.0916
166,-8104.7956,0.0044,26.1355,5.7321,9.142
167,-8104.7956,0.0031,26.1355,5.7321,9.194
168,-8104.7956,0.0031,26.1355,5.7321,9.2497
169,-8104.7956,0.0025,0.4751,0.4799,9.3081
170,-8104.7956,0.0012,0.4751,0.4799,9.3644
171,-8104.7956,0.0012,0.4751,0.4799,9.4198
172,-8098.2494,0.0019,0.4751,0.4799,9.4716
173,-8074.4441,0.0019,0.0,0.4799,9.5222
174,-8074.4441,0.0019,11.2526,0.4799,9.5744
175,-8074.4441,0.0019,11.2526,0.4799,9.6258
176,-8045.8353,0.0025,11.2526,0.4799,9.6761
177,-8045.8353,0.0019,0.0,0.4799,9.7268
178,-8017.5898,0.0012,0.0,0.4799,9.7786
179,-8014.3175,0.0019,0.0,0.4799,9.829
180,-8007.5979,0.0025,0.0,0.4799,9.8798
181,-7978.1629,0.0031,0.0,0.4799,9.9295
182,-7978.1629,0.0031,9.6908,0.4799,9.9818
183,-7916.4855,0.0031,9.6908,0.4799,10.0323
184,-7916.4855,0.0025,0.0,0.4799,10.0841
185,-7916.4855,0.0019,0.0,0.4799,10.135
186,-7907.7796,0.0012,0.0,0.4799,10.1849
187,-7907.7796,0.0012,0.0,0.4799,10.2366
188,-7842.203,0.0019,0.0,0.4799,10.2875
189,-7842.203,0.0019,27.6798,0.4799,10.3382
190,-7842.203,0.0019,27.6798,0.4799,10.3897
191,-7842.203,0.0012,27.6798,0.4799,10.4412
192,-7842.203,0.0012,27.6798,0.4799,10.4926
193,-7842.203,0.0,27.6798,0.4799,10.543
194,-7842.203,0.0,27.6798,0.4799,10.5978
195,-7842.203,0.0,27.6798,0.4799,10.655
196,-7842.203,0.0,27.6798,0.4799,10.7114
197,-7835.0228,0.0006,27.6798,0.4799,10.7675
198,-7828.2337,0.0019,0.0,0.4799,10.8195
199,-7828.2337,0.0019,3.8696,0.4799,10.8711
200,-7828.2337,0.0019,3.8696,0.4799,10.9214
